% This is an US standard atmosphere 1976 table with altitude, density, pressure and temperature.	1.7	8
% The altitude goes from -5 to 100 km with steps of 100 m and then with steps of 1000m.	1.7	8
-5000	1.9311	177760	320.68	1.7	8
-4900	1.9145	175870	320.02	1.7	8
-4800	1.898	174000	319.37	1.7	8
-4700	1.8816	172140	318.72	1.7	8
-4600	1.8653	170300	318.07	1.7	8
-4500	1.8491	168480	317.42	1.7	8
-4400	1.833	166670	316.77	1.7	8
-4300	1.817	164880	316.12	1.7	8
-4200	1.8011	163100	315.47	1.7	8
-4100	1.7854	161340	314.82	1.7	8
-4000	1.7697	159600	314.17	1.7	8
-3900	1.7542	157870	313.52	1.7	8
-3800	1.7387	156150	312.86	1.7	8
-3700	1.7234	154450	312.21	1.7	8
-3600	1.7082	152770	311.56	1.7	8
-3500	1.693	151100	310.91	1.7	8
-3400	1.678	149440	310.26	1.7	8
-3300	1.6631	147810	309.61	1.7	8
-3200	1.6482	146180	308.96	1.7	8
-3100	1.6335	144570	308.31	1.7	8
-3000	1.6189	142970	307.66	1.7	8
-2900	1.6044	141390	307.01	1.7	8
-2800	1.59	139820	306.36	1.7	8
-2700	1.5756	138270	305.71	1.7	8
-2600	1.5614	136730	305.06	1.7	8
-2500	1.5473	135200	304.41	1.7	8
-2400	1.5333	133690	303.76	1.7	8
-2300	1.5194	132190	303.11	1.7	8
-2200	1.5055	130710	302.45	1.7	8
-2100	1.4918	129240	301.8	1.7	8
-2000	1.4782	127780	301.15	1.7	8
-1900	1.4646	126340	300.5	1.7	8
-1800	1.4512	124910	299.85	1.7	8
-1700	1.4378	123490	299.2	1.7	8
-1600	1.4246	122090	298.55	1.7	8
-1500	1.4114	120700	297.9	1.7	8
-1400	1.3984	119320	297.25	1.7	8
-1300	1.3854	117950	296.6	1.7	8
-1200	1.3725	116600	295.95	1.7	8
-1100	1.3597	115260	295.3	1.7	8
-1000	1.347	113930	294.65	1.7	8
-900	1.3344	112620	294	1.7	8
-800	1.3219	111310	293.35	1.7	8
-700	1.3095	110020	292.7	1.7	8
-600	1.2971	108740	292.05	1.7	8
-500	1.2849	107480	291.4	1.7	8
-400	1.2727	106220	290.75	1.7	8
-300	1.2607	104980	290.1	1.7	8
-200	1.2487	103750	289.45	1.7	8
-100	1.2368	102530	288.8	1.7	8
0	1.225	101320	288.15	1.7	8
100	1.2133	100130	287.5	1.7	8
200	1.2017	98945	286.85	1.7	8
300	1.1901	97773	286.2	1.7	8
400	1.1786	96611	285.55	1.7	8
500	1.1673	95461	284.9	1.7	8
600	1.156	94322	284.25	1.7	8
700	1.1448	93194	283.6	1.7	8
800	1.1337	92078	282.95	1.7	8
900	1.1226	90971	282.3	1.7	8
1000	1.1117	89876	281.65	1.7	8
1100	1.1008	88792	281	1.7	8
1200	1.09	87718	280.35	1.7	8
1300	1.0793	86655	279.7	1.7	8
1400	1.0687	85602	279.05	1.7	8
1500	1.0581	84560	278.4	1.7	8
1600	1.0476	83528	277.75	1.7	8
1700	1.0372	82506	277.1	1.7	8
1800	1.0269	81494	276.45	1.7	8
1900	1.0167	80493	275.8	1.7	8
2000	1.0066	79501	275.15	1.7	8
2100	0.99648	78520	274.5	1.7	8
2200	0.98648	77548	273.85	1.7	8
2300	0.97656	76586	273.21	1.7	8
2400	0.96672	75634	272.56	1.7	8
2500	0.95695	74692	271.91	1.7	8
2600	0.94726	73759	271.26	1.7	8
2700	0.93765	72835	270.61	1.7	8
2800	0.92811	71921	269.96	1.7	8
2900	0.91864	71017	269.31	1.7	8
3000	0.90925	70121	268.66	1.7	8
3100	0.89994	69235	268.01	1.7	8
3200	0.89069	68358	267.36	1.7	8
3300	0.88152	67490	266.71	1.7	8
3400	0.87243	66631	266.06	1.7	8
3500	0.8634	65780	265.41	1.7	8
3600	0.85445	64939	264.76	1.7	8
3700	0.84557	64106	264.11	1.7	8
3800	0.83676	63282	263.46	1.7	8
3900	0.82802	62467	262.82	1.7	8
4000	0.81935	61660	262.17	1.7	8
4100	0.81075	60862	261.52	1.7	8
4200	0.80222	60072	260.87	1.7	8
4300	0.79375	59291	260.22	1.7	8
4400	0.78536	58518	259.57	1.7	8
4500	0.77704	57753	258.92	1.7	8
4600	0.76878	56996	258.27	1.7	8
4700	0.76059	56247	257.62	1.7	8
4800	0.75247	55506	256.97	1.7	8
4900	0.74442	54773	256.32	1.7	8
5000	0.73643	54048	255.68	1.7	8
5100	0.72851	53331	255.03	1.7	8
5200	0.72065	52622	254.38	1.7	8
5300	0.71286	51920	253.73	1.7	8
5400	0.70513	51226	253.08	1.7	8
5500	0.69747	50539	252.43	1.7	8
5600	0.68987	49860	251.78	1.7	8
5700	0.68234	49189	251.13	1.7	8
5800	0.67486	48524	250.48	1.7	8
5900	0.66746	47867	249.84	1.7	8
6000	0.66011	47218	249.19	1.7	8
6100	0.65283	46575	248.54	1.7	8
6200	0.64561	45940	247.89	1.7	8
6300	0.63845	45311	247.24	1.7	8
6400	0.63135	44690	246.59	1.7	8
6500	0.62431	44075	245.94	1.7	8
6600	0.61733	43468	245.29	1.7	8
6700	0.61041	42867	244.65	1.7	8
6800	0.60356	42273	244	1.7	8
6900	0.59676	41686	243.35	1.7	8
7000	0.59002	41105	242.7	1.7	8
7100	0.58334	40531	242.05	1.7	8
7200	0.57671	39964	241.4	1.7	8
7300	0.57015	39403	240.75	1.7	8
7400	0.56364	38848	240.11	1.7	8
7500	0.55719	38300	239.46	1.7	8
7600	0.5508	37758	238.81	1.7	8
7700	0.54446	37222	238.16	1.7	8
7800	0.53818	36692	237.51	1.7	8
7900	0.53196	36169	236.86	1.7	8
8000	0.52579	35652	236.22	1.7	8
8100	0.51967	35140	235.57	1.7	8
8200	0.51361	34635	234.92	1.7	8
8300	0.50761	34136	234.27	1.7	8
8400	0.50165	33642	233.62	1.7	8
8500	0.49576	33154	232.97	1.7	8
8600	0.48991	32672	232.33	1.7	8
8700	0.48412	32196	231.68	1.7	8
8800	0.47838	31725	231.03	1.7	8
8900	0.4727	31260	230.38	1.7	8
9000	0.46706	30801	229.73	1.7	8
9100	0.46148	30347	229.08	1.7	8
9200	0.45595	29898	228.44	1.7	8
9300	0.45047	29455	227.79	1.7	8
9400	0.44504	29017	227.14	1.7	8
9500	0.43966	28585	226.49	1.7	8
9600	0.43433	28157	225.84	1.7	8
9700	0.42905	27735	225.2	1.7	8
9800	0.42382	27318	224.55	1.7	8
9900	0.41864	26907	223.9	1.7	8
10000	0.41351	26500	223.25	1.7	8
10100	0.40843	26098	222.6	1.7	8
10200	0.40339	25701	221.96	1.7	8
10300	0.3984	25309	221.31	1.7	8
10400	0.39346	24922	220.66	1.7	8
10500	0.38857	24540	220.01	1.7	8
10600	0.38372	24163	219.36	1.7	8
10700	0.37892	23790	218.72	1.7	8
10800	0.37417	23422	218.07	1.7	8
10900	0.36946	23059	217.42	1.7	8
11000	0.3648	22700	216.77	1.7	8
11100	0.35932	22346	216.65	1.7	8
11200	0.35372	21998	216.65	1.7	8
11300	0.3482	21655	216.65	1.7	8
11400	0.34277	21317	216.65	1.7	8
11500	0.33743	20985	216.65	1.7	8
11600	0.33217	20658	216.65	1.7	8
11700	0.32699	20336	216.65	1.7	8
11800	0.32189	20019	216.65	1.7	8
11900	0.31688	19707	216.65	1.7	8
12000	0.31194	19399	216.65	1.7	8
12100	0.30708	19097	216.65	1.7	8
12200	0.30229	18799	216.65	1.7	8
12300	0.29758	18506	216.65	1.7	8
12400	0.29294	18218	216.65	1.7	8
12500	0.28838	17934	216.65	1.7	8
12600	0.28388	17655	216.65	1.7	8
12700	0.27946	17379	216.65	1.7	8
12800	0.2751	17109	216.65	1.7	8
12900	0.27082	16842	216.65	1.7	8
13000	0.2666	16580	216.65	1.7	8
13100	0.26244	16321	216.65	1.7	8
13200	0.25835	16067	216.65	1.7	8
13300	0.25433	15817	216.65	1.7	8
13400	0.25037	15570	216.65	1.7	8
13500	0.24646	15328	216.65	1.7	8
13600	0.24262	15089	216.65	1.7	8
13700	0.23885	14854	216.65	1.7	8
13800	0.23512	14622	216.65	1.7	8
13900	0.23146	14395	216.65	1.7	8
14000	0.22786	14170	216.65	1.7	8
14100	0.22431	13950	216.65	1.7	8
14200	0.22081	13732	216.65	1.7	8
14300	0.21737	13518	216.65	1.7	8
14400	0.21399	13308	216.65	1.7	8
14500	0.21066	13101	216.65	1.7	8
14600	0.20737	12897	216.65	1.7	8
14700	0.20414	12696	216.65	1.7	8
14800	0.20097	12498	216.65	1.7	8
14900	0.19784	12303	216.65	1.7	8
15000	0.19476	12112	216.65	1.7	8
15100	0.19172	11923	216.65	1.7	8
15200	0.18874	11738	216.65	1.7	8
15300	0.1858	11555	216.65	1.7	8
15400	0.18291	11375	216.65	1.7	8
15500	0.18006	11198	216.65	1.7	8
15600	0.17725	11023	216.65	1.7	8
15700	0.17449	10852	216.65	1.7	8
15800	0.17178	10683	216.65	1.7	8
15900	0.1691	10517	216.65	1.7	8
16000	0.16647	10353	216.65	1.7	8
16100	0.16388	10192	216.65	1.7	8
16200	0.16133	10033	216.65	1.7	8
16300	0.15882	9876.8	216.65	1.7	8
16400	0.15635	9723.1	216.65	1.7	8
16500	0.15391	9571.8	216.65	1.7	8
16600	0.15152	9422.8	216.65	1.7	8
16700	0.14916	9276.1	216.65	1.7	8
16800	0.14684	9131.8	216.65	1.7	8
16900	0.14455	8989.6	216.65	1.7	8
17000	0.1423	8849.7	216.65	1.7	8
17100	0.14009	8712	216.65	1.7	8
17200	0.13791	8576.4	216.65	1.7	8
17300	0.13576	8443	216.65	1.7	8
17400	0.13365	8311.6	216.65	1.7	8
17500	0.13157	8182.3	216.65	1.7	8
17600	0.12952	8055	216.65	1.7	8
17700	0.12751	7929.6	216.65	1.7	8
17800	0.12552	7806.2	216.65	1.7	8
17900	0.12357	7684.8	216.65	1.7	8
18000	0.12165	7565.2	216.65	1.7	8
18100	0.11975	7447.5	216.65	1.7	8
18200	0.11789	7331.7	216.65	1.7	8
18300	0.11606	7217.6	216.65	1.7	8
18400	0.11425	7105.3	216.65	1.7	8
18500	0.11247	6994.8	216.65	1.7	8
18600	0.11073	6886	216.65	1.7	8
18700	0.109	6778.9	216.65	1.7	8
18800	0.10731	6673.5	216.65	1.7	8
18900	0.10564	6569.7	216.65	1.7	8
19000	0.104	6467.5	216.65	1.7	8
19100	0.10238	6366.9	216.65	1.7	8
19200	0.10079	6267.9	216.65	1.7	8
19300	0.099219	6170.4	216.65	1.7	8
19400	0.097676	6074.5	216.65	1.7	8
19500	0.096157	5980	216.65	1.7	8
19600	0.094662	5887	216.65	1.7	8
19700	0.09319	5795.5	216.65	1.7	8
19800	0.091741	5705.4	216.65	1.7	8
19900	0.090314	5616.6	216.65	1.7	8
20000	0.08891	5529.3	216.65	1.7	8
20100	0.087513	5443.3	216.69	1.7	8
20200	0.086113	5358.8	216.79	1.7	8
20300	0.084737	5275.5	216.89	1.7	8
20400	0.083383	5193.6	216.98	1.7	8
20500	0.082051	5113	217.08	1.7	8
20600	0.080742	5033.7	217.18	1.7	8
20700	0.079454	4955.7	217.28	1.7	8
20800	0.078187	4878.9	217.38	1.7	8
20900	0.076941	4803.3	217.48	1.7	8
21000	0.075715	4728.9	217.58	1.7	8
21100	0.074509	4655.8	217.68	1.7	8
21200	0.073323	4583.8	217.78	1.7	8
21300	0.072157	4512.9	217.88	1.7	8
21400	0.07101	4443.2	217.98	1.7	8
21500	0.069881	4374.6	218.08	1.7	8
21600	0.068771	4307	218.18	1.7	8
21700	0.067679	4240.6	218.28	1.7	8
21800	0.066605	4175.2	218.38	1.7	8
21900	0.065549	4110.8	218.47	1.7	8
22000	0.06451	4047.5	218.57	1.7	8
22100	0.063488	3985.2	218.67	1.7	8
22200	0.062482	3923.8	218.77	1.7	8
22300	0.061493	3863.5	218.87	1.7	8
22400	0.06052	3804.1	218.97	1.7	8
22500	0.059563	3745.6	219.07	1.7	8
22600	0.058621	3688.1	219.17	1.7	8
22700	0.057695	3631.4	219.27	1.7	8
22800	0.056784	3575.7	219.37	1.7	8
22900	0.055887	3520.8	219.47	1.7	8
23000	0.055006	3466.9	219.57	1.7	8
23100	0.054138	3413.7	219.67	1.7	8
23200	0.053285	3361.4	219.77	1.7	8
23300	0.052445	3310	219.86	1.7	8
23400	0.05162	3259.3	219.96	1.7	8
23500	0.050807	3209.5	220.06	1.7	8
23600	0.050008	3160.4	220.16	1.7	8
23700	0.049221	3112.1	220.26	1.7	8
23800	0.048448	3064.6	220.36	1.7	8
23900	0.047687	3017.8	220.46	1.7	8
24000	0.046938	2971.7	220.56	1.7	8
24100	0.046201	2926.4	220.66	1.7	8
24200	0.045476	2881.8	220.76	1.7	8
24300	0.044763	2837.9	220.86	1.7	8
24400	0.044062	2794.7	220.96	1.7	8
24500	0.043372	2752.1	221.06	1.7	8
24600	0.042693	2710.3	221.16	1.7	8
24700	0.042024	2669	221.25	1.7	8
24800	0.041367	2628.5	221.35	1.7	8
24900	0.04072	2588.5	221.45	1.7	8
25000	0.040084	2549.2	221.55	1.7	8
25100	0.039458	2510.5	221.65	1.7	8
25200	0.038842	2472.4	221.75	1.7	8
25300	0.038236	2434.9	221.85	1.7	8
25400	0.037639	2398	221.95	1.7	8
25500	0.037052	2361.7	222.05	1.7	8
25600	0.036475	2325.9	222.15	1.7	8
25700	0.035907	2290.7	222.25	1.7	8
25800	0.035348	2256.1	222.35	1.7	8
25900	0.034798	2222	222.44	1.7	8
26000	0.034257	2188.4	222.54	1.7	8
26100	0.033724	2155.3	222.64	1.7	8
26200	0.0332	2122.8	222.74	1.7	8
26300	0.032684	2090.7	222.84	1.7	8
26400	0.032177	2059.2	222.94	1.7	8
26500	0.031678	2028.1	223.04	1.7	8
26600	0.031186	1997.6	223.14	1.7	8
26700	0.030703	1967.5	223.24	1.7	8
26800	0.030227	1937.9	223.34	1.7	8
26900	0.029759	1908.7	223.44	1.7	8
27000	0.029298	1880	223.54	1.7	8
27100	0.028845	1851.7	223.63	1.7	8
27200	0.028399	1823.9	223.73	1.7	8
27300	0.02796	1796.5	223.83	1.7	8
27400	0.027528	1769.5	223.93	1.7	8
27500	0.027103	1742.9	224.03	1.7	8
27600	0.026684	1716.8	224.13	1.7	8
27700	0.026273	1691.1	224.23	1.7	8
27800	0.025867	1665.7	224.33	1.7	8
27900	0.025469	1640.8	224.43	1.7	8
28000	0.025076	1616.2	224.53	1.7	8
28100	0.02469	1592	224.63	1.7	8
28200	0.02431	1568.2	224.73	1.7	8
28300	0.023936	1544.7	224.82	1.7	8
28400	0.023568	1521.7	224.92	1.7	8
28500	0.023206	1498.9	225.02	1.7	8
28600	0.022849	1476.6	225.12	1.7	8
28700	0.022498	1454.5	225.22	1.7	8
28800	0.022153	1432.8	225.32	1.7	8
28900	0.021813	1411.5	225.42	1.7	8
29000	0.021478	1390.4	225.52	1.7	8
29100	0.021149	1369.7	225.62	1.7	8
29200	0.020825	1349.3	225.72	1.7	8
29300	0.020506	1329.2	225.82	1.7	8
29400	0.020192	1309.5	225.91	1.7	8
29500	0.019883	1290	226.01	1.7	8
29600	0.019579	1270.8	226.11	1.7	8
29700	0.01928	1251.9	226.21	1.7	8
29800	0.018985	1233.4	226.31	1.7	8
29900	0.018696	1215.1	226.41	1.7	8
30000	0.01841	1197	226.51	1.7	8
30100	0.018129	1179.3	226.61	1.7	8
30200	0.017853	1161.8	226.71	1.7	8
30300	0.017581	1144.6	226.81	1.7	8
30400	0.017313	1127.7	226.91	1.7	8
30500	0.017049	1111	227	1.7	8
30600	0.01679	1094.5	227.1	1.7	8
30700	0.016534	1078.3	227.2	1.7	8
30800	0.016283	1062.4	227.3	1.7	8
30900	0.016035	1046.7	227.4	1.7	8
31000	0.015792	1031.3	227.5	1.7	8
31100	0.015552	1016	227.6	1.7	8
31200	0.015316	1001.1	227.7	1.7	8
31300	0.015083	986.29	227.8	1.7	8
31400	0.014855	971.76	227.9	1.7	8
31500	0.014629	957.44	227.99	1.7	8
31600	0.014408	943.35	228.09	1.7	8
31700	0.01419	929.46	228.19	1.7	8
31800	0.013975	915.79	228.29	1.7	8
31900	0.013763	902.33	228.39	1.7	8
32000	0.013555	889.06	228.49	1.7	8
32100	0.01335	876	228.59	1.7	8
32200	0.013145	863.14	228.76	1.7	8
32300	0.012936	850.48	229.03	1.7	8
32400	0.012731	838.02	229.31	1.7	8
32500	0.01253	825.76	229.59	1.7	8
32600	0.012332	813.7	229.86	1.7	8
32700	0.012137	801.82	230.14	1.7	8
32800	0.011946	790.13	230.42	1.7	8
32900	0.011758	778.63	230.7	1.7	8
33000	0.011573	767.31	230.97	1.7	8
33100	0.011391	756.17	231.25	1.7	8
33200	0.011213	745.2	231.53	1.7	8
33300	0.011037	734.4	231.8	1.7	8
33400	0.010864	723.77	232.08	1.7	8
33500	0.010694	713.31	232.36	1.7	8
33600	0.010528	703.02	232.64	1.7	8
33700	0.010363	692.88	232.91	1.7	8
33800	0.010202	682.9	233.19	1.7	8
33900	0.010043	673.08	233.47	1.7	8
34000	0.0098874	663.41	233.74	1.7	8
34100	0.009734	653.89	234.02	1.7	8
34200	0.0095832	644.52	234.3	1.7	8
34300	0.0094348	635.3	234.57	1.7	8
34400	0.009289	626.22	234.85	1.7	8
34500	0.0091456	617.27	235.13	1.7	8
34600	0.0090045	608.47	235.41	1.7	8
34700	0.0088658	599.8	235.68	1.7	8
34800	0.0087294	591.27	235.96	1.7	8
34900	0.0085953	582.87	236.24	1.7	8
35000	0.0084634	574.59	236.51	1.7	8
35100	0.0083336	566.45	236.79	1.7	8
35200	0.008206	558.43	237.07	1.7	8
35300	0.0080805	550.53	237.34	1.7	8
35400	0.0079571	542.75	237.62	1.7	8
35500	0.0078357	535.1	237.9	1.7	8
35600	0.0077163	527.55	238.17	1.7	8
35700	0.0075989	520.13	238.45	1.7	8
35800	0.0074833	512.82	238.73	1.7	8
35900	0.0073697	505.61	239.01	1.7	8
36000	0.0072579	498.52	239.28	1.7	8
36100	0.007148	491.54	239.56	1.7	8
36200	0.0070398	484.66	239.84	1.7	8
36300	0.0069334	477.89	240.11	1.7	8
36400	0.0068288	471.22	240.39	1.7	8
36500	0.0067258	464.64	240.67	1.7	8
36600	0.0066245	458.17	240.94	1.7	8
36700	0.0065248	451.8	241.22	1.7	8
36800	0.0064268	445.52	241.5	1.7	8
36900	0.0063304	439.34	241.77	1.7	8
37000	0.0062355	433.25	242.05	1.7	8
37100	0.0061421	427.25	242.33	1.7	8
37200	0.0060502	421.34	242.6	1.7	8
37300	0.0059599	415.52	242.88	1.7	8
37400	0.0058709	409.79	243.16	1.7	8
37500	0.0057835	404.14	243.43	1.7	8
37600	0.0056974	398.58	243.71	1.7	8
37700	0.0056126	393.1	243.99	1.7	8
37800	0.0055293	387.7	244.26	1.7	8
37900	0.0054473	382.38	244.54	1.7	8
38000	0.0053666	377.14	244.82	1.7	8
38100	0.0052871	371.98	245.09	1.7	8
38200	0.005209	366.89	245.37	1.7	8
38300	0.0051321	361.88	245.65	1.7	8
38400	0.0050564	356.95	245.92	1.7	8
38500	0.0049819	352.08	246.2	1.7	8
38600	0.0049086	347.29	246.48	1.7	8
38700	0.0048364	342.57	246.75	1.7	8
38800	0.0047654	337.92	247.03	1.7	8
38900	0.0046955	333.34	247.31	1.7	8
39000	0.0046267	328.82	247.58	1.7	8
39100	0.004559	324.37	247.86	1.7	8
39200	0.0044924	319.99	248.14	1.7	8
39300	0.0044268	315.67	248.41	1.7	8
39400	0.0043623	311.41	248.69	1.7	8
39500	0.0042987	307.22	248.97	1.7	8
39600	0.0042362	303.08	249.24	1.7	8
39700	0.0041746	299.01	249.52	1.7	8
39800	0.004114	295	249.8	1.7	8
39900	0.0040544	291.04	250.07	1.7	8
40000	0.0039957	287.14	250.35	1.7	8
40100	0.0039379	283.3	250.63	1.7	8
40200	0.003881	279.52	250.9	1.7	8
40300	0.003825	275.79	251.18	1.7	8
40400	0.0037698	272.11	251.46	1.7	8
40500	0.0037155	268.48	251.73	1.7	8
40600	0.0036621	264.91	252.01	1.7	8
40700	0.0036094	261.39	252.28	1.7	8
40800	0.0035576	257.92	252.56	1.7	8
40900	0.0035066	254.5	252.84	1.7	8
41000	0.0034564	251.13	253.11	1.7	8
41100	0.003407	247.81	253.39	1.7	8
41200	0.0033583	244.54	253.67	1.7	8
41300	0.0033103	241.31	253.94	1.7	8
41400	0.0032631	238.13	254.22	1.7	8
41500	0.0032167	234.99	254.5	1.7	8
41600	0.0031709	231.9	254.77	1.7	8
41700	0.0031259	228.85	255.05	1.7	8
41800	0.0030815	225.85	255.33	1.7	8
41900	0.0030378	222.89	255.6	1.7	8
42000	0.0029948	219.97	255.88	1.7	8
42100	0.0029524	217.09	256.15	1.7	8
42200	0.0029107	214.25	256.43	1.7	8
42300	0.0028696	211.46	256.71	1.7	8
42400	0.0028291	208.7	256.98	1.7	8
42500	0.0027893	205.98	257.26	1.7	8
42600	0.00275	203.3	257.54	1.7	8
42700	0.0027114	200.66	257.81	1.7	8
42800	0.0026733	198.05	258.09	1.7	8
42900	0.0026358	195.48	258.36	1.7	8
43000	0.0025989	192.95	258.64	1.7	8
43100	0.0025625	190.45	258.92	1.7	8
43200	0.0025267	187.99	259.19	1.7	8
43300	0.0024914	185.57	259.47	1.7	8
43400	0.0024567	183.17	259.75	1.7	8
43500	0.0024224	180.81	260.02	1.7	8
43600	0.0023887	178.48	260.3	1.7	8
43700	0.0023555	176.19	260.57	1.7	8
43800	0.0023228	173.93	260.85	1.7	8
43900	0.0022906	171.7	261.13	1.7	8
44000	0.0022589	169.5	261.4	1.7	8
44100	0.0022276	167.33	261.68	1.7	8
44200	0.0021968	165.19	261.96	1.7	8
44300	0.0021664	163.08	262.23	1.7	8
44400	0.0021365	161	262.51	1.7	8
44500	0.0021071	158.94	262.78	1.7	8
44600	0.0020781	156.92	263.06	1.7	8
44700	0.0020495	154.93	263.34	1.7	8
44800	0.0020214	152.96	263.61	1.7	8
44900	0.0019936	151.02	263.89	1.7	8
45000	0.0019663	149.1	264.16	1.7	8
45100	0.0019394	147.21	264.44	1.7	8
45200	0.0019128	145.35	264.72	1.7	8
45300	0.0018867	143.51	264.99	1.7	8
45400	0.0018609	141.7	265.27	1.7	8
45500	0.0018356	139.92	265.54	1.7	8
45600	0.0018106	138.15	265.82	1.7	8
45700	0.0017859	136.41	266.1	1.7	8
45800	0.0017616	134.7	266.37	1.7	8
45900	0.0017377	133.01	266.65	1.7	8
46000	0.0017141	131.34	266.92	1.7	8
46100	0.0016909	129.69	267.2	1.7	8
46200	0.001668	128.07	267.48	1.7	8
46300	0.0016455	126.47	267.75	1.7	8
46400	0.0016233	124.89	268.03	1.7	8
46500	0.0016014	123.33	268.3	1.7	8
46600	0.0015798	121.8	268.58	1.7	8
46700	0.0015585	120.28	268.86	1.7	8
46800	0.0015375	118.78	269.13	1.7	8
46900	0.0015169	117.31	269.41	1.7	8
47000	0.0014965	115.85	269.68	1.7	8
47100	0.0014765	114.41	269.96	1.7	8
47200	0.0014567	113	270.24	1.7	8
47300	0.0014372	111.6	270.51	1.7	8
47400	0.0014187	110.22	270.65	1.7	8
47500	0.0014012	108.86	270.65	1.7	8
47600	0.0013838	107.51	270.65	1.7	8
47700	0.0013667	106.18	270.65	1.7	8
47800	0.0013499	104.87	270.65	1.7	8
47900	0.0013332	103.58	270.65	1.7	8
48000	0.0013167	102.3	270.65	1.7	8
48100	0.0013004	101.03	270.65	1.7	8
48200	0.0012844	99.783	270.65	1.7	8
48300	0.0012685	98.55	270.65	1.7	8
48400	0.0012528	97.333	270.65	1.7	8
48500	0.0012373	96.13	270.65	1.7	8
48600	0.0012221	94.942	270.65	1.7	8
48700	0.001207	93.769	270.65	1.7	8
48800	0.001192	92.611	270.65	1.7	8
48900	0.0011773	91.467	270.65	1.7	8
49000	0.0011628	90.337	270.65	1.7	8
49100	0.0011484	89.221	270.65	1.7	8
49200	0.0011342	88.119	270.65	1.7	8
49300	0.0011202	87.03	270.65	1.7	8
49400	0.0011064	85.955	270.65	1.7	8
49500	0.0010927	84.894	270.65	1.7	8
49600	0.0010792	83.845	270.65	1.7	8
49700	0.0010659	82.809	270.65	1.7	8
49800	0.0010527	81.787	270.65	1.7	8
49900	0.0010397	80.777	270.65	1.7	8
50000	0.0010269	79.779	270.65	1.7	8
50100	0.0010142	78.794	270.65	1.7	8
50200	0.0010017	77.821	270.65	1.7	8
50300	0.0009893	76.86	270.65	1.7	8
50400	0.00097709	75.911	270.65	1.7	8
50500	0.00096502	74.973	270.65	1.7	8
50600	0.00095311	74.048	270.65	1.7	8
50700	0.00094134	73.133	270.65	1.7	8
50800	0.00092972	72.231	270.65	1.7	8
50900	0.00091824	71.339	270.65	1.7	8
51000	0.0009069	70.458	270.65	1.7	8
51100	0.00089571	69.588	270.65	1.7	8
51200	0.00088465	68.729	270.65	1.7	8
51300	0.00087373	67.881	270.65	1.7	8
51400	0.00086294	67.043	270.65	1.7	8
51500	0.00085305	66.215	270.41	1.7	8
51600	0.00084336	65.396	270.13	1.7	8
51700	0.00083378	64.587	269.86	1.7	8
51800	0.00082429	63.787	269.58	1.7	8
51900	0.0008149	62.997	269.31	1.7	8
52000	0.00080562	62.215	269.03	1.7	8
52100	0.00079642	61.442	268.76	1.7	8
52200	0.00078733	60.678	268.48	1.7	8
52300	0.00077833	59.923	268.2	1.7	8
52400	0.00076942	59.176	267.93	1.7	8
52500	0.00076061	58.438	267.65	1.7	8
52600	0.00075189	57.709	267.38	1.7	8
52700	0.00074326	56.988	267.1	1.7	8
52800	0.00073472	56.275	266.83	1.7	8
52900	0.00072627	55.57	266.55	1.7	8
53000	0.00071791	54.874	266.28	1.7	8
53100	0.00070963	54.185	266	1.7	8
